BEGIN IONS
TITLE=File872 Spectrum5599 scans: 9610
PEPMASS=478.77948
SCANS=9610
CHARGE=2+
141.218	21391.5
143.134	175339.0
147.024	88139.9
147.85	8067.63
162.287	10631.7
167.98	29954.1
169.197	232415.0
170.183	32322.4
171.26	14045.4
180.95	7077.91
183.124	39062.2
186.124	7457.01
187.063	9472.23
189.218	9966.31
191.168	7772.38
199.197	6588.45
200.27	54436.3
201.26	29793.5
205.098	3517.82
210.097	9382.89
212.247	14192.5
214.136	884317.0
215.21	169728.0
215.941	13174.3
218.191	743190.0
219.208	56532.2
222.986	9785.41
227.215	5233.29
233.199	740592.0
234.29	124133.0
235.184	27814.2
239.234	32085.3
240.258	125525.0
241.16	23444.5
242.304	58876.5
243.41	7250.26
244.1	7777.28
250.164	15925.9
253.752	28476.3
257.244	402858.0
258.295	20932.0
260.159	26416.2
261.265	845203.0
262.238	138640.0
263.132	18841.5
267.416	31462.6
268.284	3704.44
283.186	10867.6
284.08	9554.51
285.257	1602040.0
286.252	180595.0
287.296	9128.61
289.302	8036.55
291.254	14553.8
293.172	12510.6
296.171	20458.5
300.755	16883.0
302.509	13441.3
307.361	5814.79
311.265	251223.0
312.456	36788.7
313.277	71556.0
314.231	67838.7
315.175	3547.21
321.274	40327.1
322.122	13725.9
322.764	7634.67
323.84	52243.0
328.308	683728.0
329.28	265350.0
330.295	40006.8
331.424	13340.0
332.402	6190.36
333.36	6949.56
338.139	63926.8
342.261	5743.04
344.889	22527.9
346.285	2481120.0
347.301	357993.0
348.287	77957.1
349.87	33243.7
351.0	25138.4
353.401	8374.22
354.944	32356.4
356.288	2725650.0
357.331	471640.0
358.395	9504.2
359.922	19277.7
362.326	13317.3
363.432	8502.83
366.49	20010.8
367.689	19432.1
370.921	30755.2
372.812	58513.8
377.552	41743.9
380.082	54031.5
381.372	50686.9
382.386	147780.0
383.485	9644.74
384.358	10325.3
386.235	366914.0
389.268	27472.3
392.214	58367.4
393.312	19097.3
394.394	15379.2
395.346	17064.1
396.428	13023.1
397.298	20080.3
399.421	230411.0
400.481	36756.4
405.296	6969.97
406.502	51896.1
407.969	1303980.0
409.039	221517.0
412.651	43296.8
413.331	41526.7
414.036	52189.0
415.301	49086.3
415.974	19514.0
416.668	10246.2
422.015	36285.5
422.845	27838.5
424.221	12222.0
425.381	41292.8
427.288	2401340.0
428.38	599473.0
429.379	25623.1
430.345	13720.3
433.11	305002.0
433.71	38303.4
435.503	102458.0
436.431	12393.0
437.352	13316.1
438.484	6224.41
439.463	26680.2
440.288	19824.3
441.491	38059.9
442.422	47521.7
443.185	118254.0
443.942	25360.3
444.587	26092.8
447.265	18407.0
448.139	20472.2
448.881	59672.1
450.347	32847.3
453.17	168331.0
454.444	108068.0
455.365	11123.3
456.436	77167.5
457.644	23372.6
459.353	2588990.0
460.451	585175.0
461.463	122109.0
463.121	58197.6
464.117	35265.2
465.799	100306.0
466.873	339482.0
467.617	38202.7
468.603	38597.4
470.036	1568240.0
470.84	326839.0
471.685	197251.0
472.694	94666.4
475.382	28594.3
477.483	21844.2
487.553	20260.0
489.402	16331.8
491.597	6272.31
492.395	109943.0
493.126	7511.8
495.483	60605.1
496.689	60330.9
498.288	2434950.0
499.315	432040.0
500.348	29209.3
505.221	15266.5
512.893	145543.0
514.029	43897.1
515.479	132658.0
516.35	96425.8
520.182	56226.5
524.362	32870.8
527.96	54968.5
529.403	10773.8
530.377	3136430.0
531.338	1050500.0
532.387	159617.0
533.374	41305.4
535.487	5489.72
538.516	21669.4
540.391	123825.0
541.28	16670.7
544.01	418059.0
544.767	70143.9
548.426	15764.0
552.566	5175.81
553.323	4465.19
558.458	24412.3
560.411	17710.9
561.205	54276.2
563.576	93761.2
566.098	230516.0
566.948	16598.7
567.877	29676.2
569.458	115410.0
571.243	31122.6
571.958	13884.8
574.785	21908.8
576.456	26779.4
578.538	482279.0
579.557	120444.0
580.853	33268.5
583.572	101128.0
584.456	106136.0
585.537	127108.0
586.6	132820.0
587.51	6622340.0
588.401	932460.0
589.587	73949.2
590.62	73694.4
591.415	46398.9
592.231	41247.0
593.439	108659.0
594.492	10502.9
595.822	13407.2
597.555	20826.8
598.426	31219.0
599.624	3067.0
601.406	4637030.0
602.402	1584280.0
603.461	259460.0
604.187	12775.7
607.591	10821.5
609.196	33606.1
610.173	123135.0
611.389	2740270.0
612.406	976008.0
613.502	139647.0
617.262	36368.4
622.427	43773.3
624.146	9525.12
625.453	5986.3
628.539	55652.5
629.509	76627.5
630.81	5943.09
632.674	15680.1
633.557	58691.0
635.564	20548.8
639.962	91986.7
641.213	24836.9
642.972	185821.0
644.396	5519.42
645.338	4797.0
646.386	32670.8
649.193	205821.0
649.855	14451.3
652.01	1526860.0
653.034	218117.0
654.01	16065.4
654.971	84947.7
655.638	9580.19
656.72	89347.7
657.434	54276.2
659.75	35954.7
661.123	993736.0
661.876	132882.0
662.48	124450.0
665.943	4101.43
666.845	8421.59
667.707	17449.6
668.946	17684.9
670.515	31133.2
672.461	3777210.0
673.466	1283080.0
674.513	272247.0
675.243	9346.2
678.601	32694.7
681.555	16927.1
686.59	14843.5
694.565	10398.5
695.397	20866.5
699.541	15609.8
701.543	6096.78
703.8	22715.4
706.544	4576.52
709.328	16391.5
713.208	3787.65
714.164	29826.3
716.409	104256.0
718.5	18542.0
719.512	13021.6
720.447	44931.2
722.592	5455.7
723.227	9721.44
725.535	4842.32
726.469	23433.0
728.606	27342.9
731.539	21200.0
732.517	13963.1
739.428	1350620.0
740.53	431907.0
741.484	44653.9
742.601	19098.0
743.532	1527320.0
744.507	672466.0
745.631	142407.0
746.538	27777.5
750.562	5586.54
755.509	14466.0
763.546	10068.7
765.649	25440.5
770.494	6115.77
779.518	43374.4
780.498	12706.3
782.697	21158.7
784.586	5066.11
786.493	17829.3
787.541	6177.7
793.617	24388.8
797.31	61092.7
798.614	3929.79
800.61	15233.8
801.848	10100.0
808.551	15517.7
810.492	1063860.0
811.514	338463.0
812.631	172049.0
813.52	7957.49
814.57	1389570.0
815.652	682376.0
816.671	169119.0
820.382	3728.9
822.469	5544.16
827.47	34905.0
829.641	12876.8
831.778	8915.44
856.299	5661.02
868.591	21005.4
885.666	5065.14
901.481	7844.47
END IONS
